# dimensionless total lensed [l(l+1)/2pi] C_l's
# for l=2 to 3000, i.e. number of multipoles equal to 2999
#
# -> if you prefer output in CAMB/HealPix/LensPix units/order, set 'format' to 'camb' in input file
# -> if you don't want to see such a header, set 'headers' to 'no' in input file
# -> for CMB lensing (phi), these are C_l^phi-phi for the lensing potential.
#    Remember the conversion factors:
#    C_l^dd (deflection) = l(l+1) C_l^phi-phi
#    C_l^gg (shear/convergence) = 1/4 (l(l+1))^2 C_l^phi-phi
#
# 1:l     2:TT                     3:EE                     4:TE                     5:BB                     6:phiphi                 7:TPhi                   8:Ephi               
    2       1.320560975123e-10       6.362773711754e-15       4.026938380752e-13       2.480656258115e-19       8.055280472081e-09       4.664679598596e-10      -2.177670039931e-12 
    3       1.249360837276e-10       1.000316176880e-14       4.978323339682e-13       4.963625169594e-19       4.993212161942e-09       3.333641894305e-10      -1.859124160787e-12 
    4       1.179563044967e-10       1.072861012229e-14       5.044800252717e-13       8.277756267278e-19       3.493806109905e-09       2.543977493957e-10      -1.417434984972e-12 
    5       1.125825229381e-10       8.997416195851e-15       4.616521537442e-13       1.242588208329e-18       2.621716512925e-09       2.023241908305e-10      -9.846535142132e-13 
    6       1.087681346682e-10       6.224685125780e-15       3.959785493872e-13       1.741133649581e-18       2.057173846024e-09       1.655048575098e-10      -6.076782605955e-13 
    7       1.062175455790e-10       3.706290008565e-15       3.253457563792e-13       2.323783020827e-18       1.666224140268e-09       1.382341329219e-10      -3.078835653759e-13 
    8       1.047355616750e-10       2.067017743822e-15       2.601605894611e-13       2.990931390750e-18       1.381790613098e-09       1.174005387854e-10      -9.154458971704e-14 
    9       1.039857983905e-10       1.288863774765e-15       2.063332106466e-13       3.742983504330e-18       1.166861115953e-09       1.011211658426e-10       4.534624961780e-14 
   10       1.038533199382e-10       1.029930587181e-15       1.665463010995e-13       4.580339445176e-18       9.996904355093e-10       8.813207395720e-11       1.140504274992e-13 
   11       1.041690572570e-10       9.466356869757e-16       1.408872822935e-13       5.503380905363e-18       8.440966179573e-10       7.781807760694e-11       1.300068705843e-13 
   12       1.048249646934e-10       8.577927116198e-16       1.277377605483e-13       6.512458659742e-18       7.391422317556e-10       6.881294982153e-11       1.106873369797e-13 
   13       1.057547159711e-10       7.412014829933e-16       1.245003383270e-13       7.607881789316e-18       6.527832019161e-10       6.151733720867e-11       7.257050050739e-14 
   14       1.069222254409e-10       6.453367346788e-16       1.281260255110e-13       8.789909122081e-18       5.807882301887e-10       5.539263176071e-11       2.881072559840e-14 
   15       1.082510335287e-10       6.074214429245e-16       1.356410298108e-13       1.005874326269e-17       5.200692005969e-10       5.007440972367e-11      -1.068488392445e-14 
   16       1.097091565132e-10       6.234316516999e-16       1.446659425663e-13       1.141452746865e-17       4.683467752324e-10       4.549096668002e-11      -3.960144579580e-14 
   17       1.112771591010e-10       6.637344246206e-16       1.536193026078e-13       1.285734550539e-17       4.238994489807e-10       4.150590435721e-11      -5.555103084057e-14 
   18       1.129647223861e-10       7.012925514252e-16       1.616618099249e-13       1.438722297896e-17       3.852583770744e-10       3.803640721529e-11      -5.920764860694e-14 
   19       1.147604376492e-10       7.366104735901e-16       1.685833822339e-13       1.600414052391e-17       3.518298601014e-10       3.501393838992e-11      -5.303476850551e-14 
   20       1.165931151011e-10       7.808604783353e-16       1.744319425585e-13       1.770802574165e-17       3.223447688578e-10       3.228762099826e-11      -4.109150330327e-14 
   21       1.184805885336e-10       8.488729765761e-16       1.797180623264e-13       1.949878526311e-17       2.963519882424e-10       2.982942712341e-11      -2.688895806068e-14 
   22       1.204390663716e-10       9.554855110120e-16       1.851516635345e-13       2.137629472771e-17       2.732406043097e-10       2.761727144118e-11      -1.410029731078e-14 
   23       1.224600713066e-10       1.099490782387e-15       1.910784444823e-13       2.334043466714e-17       2.527008300349e-10       2.564965629274e-11      -4.702376015733e-15 
   24       1.245103653144e-10       1.273318452797e-15       1.976984263691e-13       2.539108047437e-17       2.342658512988e-10       2.390488111183e-11       6.724449399160e-17 
   25       1.266010806713e-10       1.473289236408e-15       2.050378764671e-13       2.752814151196e-17       2.177239973501e-10       2.235250627195e-11       3.953181313901e-16 
   26       1.287413227058e-10       1.696659498174e-15       2.129660855412e-13       2.975154927190e-17       2.027809115731e-10       2.094306529241e-11      -2.753171552274e-15 
   27       1.309243458029e-10       1.943435926894e-15       2.210473333809e-13       3.206128982695e-17       1.892617209458e-10       1.965201606481e-11      -7.993219181161e-15 
   28       1.331308410868e-10       2.213996839180e-15       2.287042958228e-13       3.445739573766e-17       1.769379070088e-10       1.845534935162e-11      -1.366650557250e-14 
   29       1.353683813272e-10       2.507043956387e-15       2.355534157469e-13       3.693997583799e-17       1.657488651094e-10       1.735396962143e-11      -1.873885488027e-14 
   30       1.376427155504e-10       2.820215291227e-15       2.412155350506e-13       3.950920160245e-17       1.555765435650e-10       1.634808049156e-11      -2.220985790550e-14 
   31       1.399497570416e-10       3.151519361687e-15       2.453165062345e-13       4.216530444202e-17       1.462161207840e-10       1.542911675039e-11      -2.316125794784e-14 
   32       1.422914961195e-10       3.503554296767e-15       2.477723764424e-13       4.490857932667e-17       1.376209663954e-10       1.459032099806e-11      -2.180658527617e-14 
   33       1.446635247013e-10       3.880950285173e-15       2.486140747519e-13       4.773939283649e-17       1.297320297190e-10       1.381830370834e-11      -1.885567265232e-14 
   34       1.470548613614e-10       4.288504083072e-15       2.479244194785e-13       5.065817430283e-17       1.224409305397e-10       1.309516019069e-11      -1.516512132459e-14 
   35       1.494664148053e-10       4.728218178714e-15       2.458620035119e-13       5.366536700483e-17       1.157113506647e-10       1.241879756392e-11      -1.139769309172e-14 
   36       1.518973432599e-10       5.201247777797e-15       2.426528362477e-13       5.676146834984e-17       1.094901706630e-10       1.178877635286e-11      -8.264302438805e-15 
   37       1.543435970290e-10       5.708569822824e-15       2.385195732973e-13       5.994700982933e-17       1.036974754571e-10       1.120208569887e-11      -6.435370816184e-15 
   38       1.568124378546e-10       6.250631362674e-15       2.334452154873e-13       6.322242833877e-17       9.831895513092e-11       1.065841042708e-11      -5.895780079924e-15 
   39       1.593117178850e-10       6.827561486825e-15       2.273322702412e-13       6.658815659705e-17       9.333819237259e-11       1.015606113073e-11      -6.375416016414e-15 
   40       1.618454002744e-10       7.439243897130e-15       2.200641200931e-13       7.004465938543e-17       8.870854393690e-11       9.690213173805e-12      -7.513731982420e-15 
   41       1.644136693926e-10       8.085511483649e-15       2.115072146122e-13       7.359238168024e-17       8.436953229298e-11       9.254492504106e-12      -8.908336280198e-15 
   42       1.670144205247e-10       8.766846662192e-15       2.015220829317e-13       7.723156944366e-17       8.030878788205e-11       8.847013309277e-12      -1.029506877070e-14 
   43       1.696414737857e-10       9.483880712097e-15       1.899534005553e-13       8.096239280537e-17       7.651582527697e-11       8.465844168095e-12      -1.141583846511e-14 
   44       1.722836245777e-10       1.023719981499e-14       1.766254051006e-13       8.478499202225e-17       7.296344186900e-11       8.107173861652e-12      -1.196619803050e-14 
   45       1.749293540396e-10       1.102733978737e-14       1.613842359600e-13       8.869943969702e-17       6.961751521543e-11       7.766604064676e-12      -1.169008498780e-14 
   46       1.775836403508e-10       1.185477375994e-14       1.442429310237e-13       9.270561942841e-17       6.647302851254e-11       7.443833077442e-12      -1.070383177276e-14 
   47       1.802554510267e-10       1.271991694612e-14       1.252776968757e-13       9.680330693852e-17       6.352654826881e-11       7.139123447461e-12      -9.264683108801e-15 
   48       1.829529186104e-10       1.362312693224e-14       1.045893607509e-13       1.009921981387e-16       6.076535543919e-11       6.851922721111e-12      -7.684886882708e-15 
   49       1.856832117741e-10       1.456470123074e-14       8.230465579128e-14       1.052719047686e-16       5.816675367433e-11       6.580799996922e-12      -6.334746605327e-15 
   50       1.884515015642e-10       1.554490132528e-14       5.854133192444e-14       1.096419682620e-16       5.570495013174e-11       6.323969688709e-12      -5.550772550648e-15 
   51       1.912578283806e-10       1.656403817653e-14       3.328934218847e-14       1.141019158956e-16       5.337550463042e-11       6.081177615590e-12      -5.323661828582e-15 
   52       1.940991617653e-10       1.762240569667e-14       6.499627421824e-15       1.186512123439e-16       5.117632120929e-11       5.852217198237e-12      -5.530900395533e-15 
   53       1.969700635180e-10       1.872025511461e-14      -2.188293526139e-14       1.232892393643e-16       4.910032815755e-11       5.636352030801e-12      -6.022882083755e-15 
   54       1.998625162167e-10       1.985779377596e-14      -5.191994953908e-14       1.280152922947e-16       4.713514261977e-11       5.432280067600e-12      -6.621495117535e-15 
   55       2.027687279606e-10       2.103513534313e-14      -8.367031999605e-14       1.328286691471e-16       4.526687303973e-11       5.238508283593e-12      -7.157866824232e-15 
   56       2.056907553727e-10       2.225213865753e-14      -1.171590864926e-13       1.377289718327e-16       4.349340101664e-11       5.054667693001e-12      -7.599816209861e-15 
   57       2.086329707968e-10       2.350852674531e-14      -1.524015781107e-13       1.427158736315e-16       4.181381147663e-11       4.880462279705e-12      -7.953587511539e-15 
   58       2.115992412047e-10       2.480392888385e-14      -1.894123740028e-13       1.477890332547e-16       4.022437352660e-11       4.715267755623e-12      -8.227575749296e-15 
   59       2.145928726732e-10       2.613787750822e-14      -2.282053465517e-13       1.529480949486e-16       3.871836627382e-11       4.558111739887e-12      -8.432438886220e-15 
   60       2.176165548603e-10       2.750980511763e-14      -2.687937045314e-13       1.581926885995e-16       3.728590464551e-11       4.407653937997e-12      -8.581209988598e-15 
   61       2.206723684288e-10       2.891914125382e-14      -3.111883420884e-13       1.635225282184e-16       3.591669858766e-11       4.262565463800e-12      -8.688078939633e-15 
   62       2.237619348742e-10       3.036563587152e-14      -3.553923549905e-13       1.689377329884e-16       3.460944843338e-11       4.122811140253e-12      -8.764164290763e-15 
   63       2.268862019535e-10       3.184910339277e-14      -4.014053644782e-13       1.744385787935e-16       3.336425893709e-11       3.988621162296e-12      -8.820987068027e-15 
   64       2.300453312389e-10       3.336932911997e-14      -4.492250924436e-13       1.800254093600e-16       3.217981248788e-11       3.860110337790e-12      -8.871786032888e-15 
   65       2.332386445924e-10       3.492606931760e-14      -4.988473508355e-13       1.856986394824e-16       3.105328800295e-11       3.737270931178e-12      -8.931587628315e-15 
   66       2.364645706390e-10       3.651905129385e-14      -5.502660310649e-13       1.914587582498e-16       2.998027982115e-11       3.619965507157e-12      -9.017275924871e-15 
   67       2.397205912409e-10       3.814797348231e-14      -6.034730934104e-13       1.973063322722e-16       2.895471659646e-11       3.507919774336e-12      -9.147662566789e-15 
   68       2.430042177759e-10       3.981238783211e-14      -6.584549472703e-13       2.032419500004e-16       2.797049008440e-11       3.400813014793e-12      -9.337982949684e-15 
   69       2.463162693320e-10       4.151131912285e-14      -7.151807638958e-13       2.092660343743e-16       2.702690604194e-11       3.298586646782e-12      -9.581933386573e-15 
   70       2.496581656567e-10       4.324356830518e-14      -7.736117655965e-13       2.153789978336e-16       2.612419719497e-11       3.201185616275e-12      -9.866103129782e-15 
   71       2.530309294232e-10       4.500782049143e-14      -8.337045243057e-13       2.215812995536e-16       2.526187436548e-11       3.108461766099e-12      -1.017515479263e-14 
   72       2.564351590426e-10       4.680264202723e-14      -8.954108586804e-13       2.278734471646e-16       2.443868909640e-11       3.020169175405e-12      -1.049175174391e-14 
   73       2.598710014748e-10       4.862647756324e-14      -9.586777312002e-13       2.342559984717e-16       2.365259627630e-11       2.935959499135e-12      -1.079648550232e-14 
   74       2.633381250405e-10       5.047764712671e-14      -1.023447145268e-12       2.407295631744e-16       2.290071676425e-11       2.855377307492e-12      -1.106780313097e-14 
   75       2.668356922321e-10       5.235434319324e-14      -1.089656042309e-12       2.472948045861e-16       2.217930001451e-11       2.777855425405e-12      -1.128193463178e-14 
   76       2.703628852128e-10       5.425479733146e-14      -1.157246568633e-12       2.539522879347e-16       2.148465873323e-11       2.702854167340e-12      -1.141821782659e-14 
   77       2.739206530433e-10       5.617782169370e-14      -1.226199264934e-12       2.607019895261e-16       2.081625223721e-11       2.630318656551e-12      -1.147635452423e-14 
   78       2.775102351543e-10       5.812236140734e-14      -1.296505770225e-12       2.675437007831e-16       2.017410006949e-11       2.560296820404e-12      -1.146218380893e-14 
   79       2.811326213265e-10       6.008733430162e-14      -1.368159096960e-12       2.744771723197e-16       1.955784268755e-11       2.492801211101e-12      -1.138260117224e-14 
   80       2.847885358359e-10       6.207163145651e-14      -1.441153740777e-12       2.815021125156e-16       1.896672402034e-11       2.427807295836e-12      -1.124559658738e-14 
   81       2.884784215979e-10       6.407411775164e-14      -1.515485790234e-12       2.886181860896e-16       1.839957402541e-11       2.365251746956e-12      -1.106029258351e-14 
   82       2.922024243126e-10       6.609363241513e-14      -1.591153036553e-12       2.958250126729e-16       1.785479124594e-11       2.305030732118e-12      -1.083698232003e-14 
   83       2.959603766094e-10       6.812898957254e-14      -1.668155083358e-12       3.031221653831e-16       1.733032536781e-11       2.246998204448e-12      -1.058716766088e-14 
   84       2.997520063296e-10       7.017890662167e-14      -1.746482180064e-12       3.105092389999e-16       1.682417759046e-11       2.191003960016e-12      -1.032182918241e-14 
   85       3.035776357769e-10       7.224177451191e-14      -1.826079354687e-12       3.179860706023e-16       1.633603525632e-11       2.137018804676e-12      -1.004582327381e-14 
   86       3.074375698570e-10       7.431585021134e-14      -1.906876508570e-12       3.255525530632e-16       1.586587748752e-11       2.085027098799e-12      -9.762621683327e-15 
   87       3.113318703368e-10       7.639932484051e-14      -1.988799085465e-12       3.332085684465e-16       1.541347285461e-11       2.034987808747e-12      -9.476005235693e-15 
   88       3.152603437561e-10       7.849032300828e-14      -2.071767991751e-12       3.409539877509e-16       1.497837063642e-11       1.986833465382e-12      -9.190072191015e-15 
   89       3.192225293392e-10       8.058690214773e-14      -2.155699516660e-12       3.487886706529e-16       1.455989207985e-11       1.940469122586e-12      -8.909246603675e-15 
   90       3.232176869073e-10       8.268705185200e-14      -2.240505252495e-12       3.567124652501e-16       1.415712165971e-11       1.895771315777e-12      -8.638286681227e-15 
   91       3.272447847897e-10       8.478869321022e-14      -2.326092014854e-12       3.647252078052e-16       1.376889833858e-11       1.852587020428e-12      -8.382293143287e-15 
   92       3.313024877360e-10       8.688967814335e-14      -2.412361762848e-12       3.728267224888e-16       1.339380682659e-11       1.810732610581e-12      -8.146717580428e-15 
   93       3.353895409647e-10       8.898787747669e-14      -2.499220451213e-12       3.810170006823e-16       1.303051448828e-11       1.770037774430e-12      -7.936184662470e-15 
   94       3.395060146384e-10       9.108146175209e-14      -2.586606282850e-12       3.892967702901e-16       1.267885900971e-11       1.730487078595e-12      -7.750737976627e-15 
   95       3.436522250786e-10       9.316866161853e-14      -2.674465577735e-12       3.976670119758e-16       1.233890891802e-11       1.692097868595e-12      -7.589042390673e-15 
   96       3.478283487451e-10       9.524768340520e-14      -2.762744261900e-12       4.061287894112e-16       1.201062856821e-11       1.654876790201e-12      -7.449512077215e-15 
   97       3.520344155849e-10       9.731670967546e-14      -2.851387910264e-12       4.146832514845e-16       1.169387414756e-11       1.618819365067e-12      -7.330302590500e-15 
   98       3.562703023826e-10       9.937389978077e-14      -2.940341789455e-12       4.233316345083e-16       1.138838968012e-11       1.583909566372e-12      -7.229302943208e-15 
   99       3.605357261090e-10       1.014173904147e-13      -3.029550900643e-12       4.320752644279e-16       1.109380303121e-11       1.550119394447e-12      -7.144127683254e-15 
  100       3.648302372715e-10       1.034452961667e-13      -3.118960022365e-12       4.409155590295e-16       1.080962191181e-11       1.517408452416e-12      -7.072108970588e-15 
  101       3.691532132628e-10       1.054557100763e-13      -3.208513753357e-12       4.498540301483e-16       1.053522988311e-11       1.485723521828e-12      -7.010288653994e-15 
  102       3.735038517111e-10       1.074467041871e-13      -3.298156555379e-12       4.588922858769e-16       1.026988236091e-11       1.454998138295e-12      -6.955410347888e-15 
  103       3.778811638293e-10       1.094163301003e-13      -3.387832796041e-12       4.680320327732e-16       1.001270262012e-11       1.425152167123e-12      -6.903911509119e-15 
  104       3.822841757170e-10       1.113626472882e-13      -3.477484265298e-12       4.772748348664e-16       9.762881096804e-12       1.396110844098e-12      -6.852602868027e-15 
  105       3.867125775589e-10       1.132838111964e-13      -3.567042250586e-12       4.866213488416e-16       9.520312561805e-12       1.367865741201e-12      -6.800828314827e-15 
  106       3.911661501337e-10       1.151779981308e-13      -3.656434466009e-12       4.960719891756e-16       9.285037971866e-12       1.340421283673e-12      -6.748583369555e-15 
  107       3.956445603799e-10       1.170433794103e-13      -3.745587497968e-12       5.056271616544e-16       9.057047117999e-12       1.313775812368e-12      -6.695853516984e-15 
